 The initial conditions used: 
 Inital Time:    0.0000000000000000     
 Inital Position of Object 1:    50.000000000000000        0.0000000000000000     
 Inital Position of Object 2:    200.00000000000000        0.0000000000000000     
 Inital Velocity of Object 1:    0.0000000000000000        1.4139999999999999     
 Inital Velocity of Object 2:    0.0000000000000000       0.74700000000000000     

                time                 x_1                 y_1                 x_2                 y_2              energy    angular_momentum
  0.50000000000000000        49.995001194389914       0.70697643250969011        199.99968694456032       0.37349980588049403      -0.14436263333335558        36.949999999999214     
   1.0000000000000000        49.980005776915021        1.4138114671449107        199.99874777963194       0.74699844704507157      -0.14436263333337773        36.949999999998433     
   1.5000000000000000        49.955016745424771        2.1203637342951209        199.99718250938665        1.1204947587826699      -0.14436263333340002        36.949999999997644     
   2.0000000000000000        49.920039095668471        2.8264919208717569        199.99499114077713        1.4939875763919392      -0.14436263333342220        36.949999999996855     
   2.5000000000000000        49.875079820295753        3.5320547985549098        199.99217368353649        1.8674757351861113      -0.14436263333344443        36.949999999996081     
   3.0000000000000000        49.820147907457539        4.2369112520228382        199.98873015017759        2.2409580704978844      -0.14436263333346666        36.949999999995299     
   3.5000000000000000        49.755254339007756        4.9409203071585974        199.98466055599226        2.6144334176843271      -0.14436263333348889        36.949999999994525     
   4.0000000000000000        49.680412088306220        5.6439411592280750        199.97996491905025        2.9879006121318090      -0.14436263333351113        36.949999999993743     
   4.5000000000000000        49.595636117623116        6.3458332010237317        199.97464326019801        3.3613584892609594      -0.14436263333353330        36.949999999992968     
   5.0000000000000000        49.500943375145624        7.0464560509683505        199.96869560305740        3.7348058845316618      -0.14436263333355553        36.949999999992187     
   5.5000000000000000        49.396352791587326        7.7456695811731118        199.96212197402409        4.1082416334480873      -0.14436263333357774        36.949999999991419     
   6.0000000000000000        49.281885276401070        8.4433339454443193        199.95492240226582        4.4816645715637708      -0.14436263333359994        36.949999999990652     
   6.5000000000000000        49.157563713596105        9.1393096072331161        199.94709691972059        4.8550735344867375      -0.14436263333362218        36.949999999989878     
   7.0000000000000000        49.023412957160375        9.8334573675225450        199.93864556109460        5.2284673578846776      -0.14436263333364435        36.949999999989103     
   7.5000000000000000        48.879459826088855        10.525638392646320        199.92956836386003        5.6018448774901799      -0.14436263333366653        36.949999999988336     
   8.0000000000000000        48.725733099019060        11.215714242033695        199.91986536825266        5.9752049291060212      -0.14436263333368871        36.949999999987575     
   8.5000000000000000        48.562263508474736        11.903546895874833        199.90953661726942        6.3485463486105225      -0.14436263333371091        36.949999999986801     
   9.0000000000000000        48.389083734719023        12.588998782701097        199.89858215666575        6.7218679719629684      -0.14436263333373309        36.949999999986034     
   9.5000000000000000        48.206228399218318        13.271932806874709        199.88700203495279        7.0951686352090952      -0.14436263333375537        36.949999999985273     
   10.000000000000000        48.013734057718196        13.952212375982233        199.87479630339442        7.4684471744866539      -0.14436263333377755        36.949999999984506     
   10.500000000000000        47.811639192932830        14.629701428126385        199.86196501600429        7.8417024260310404      -0.14436263333379964        36.949999999983739     
   11.000000000000000        47.599984206849427        15.304264459110662        199.84850822954266        8.2149332261810102      -0.14436263333382182        36.949999999982985     
   11.500000000000000        47.378811412649299        15.975766549511350        199.83442600351302        8.5881384113844650      -0.14436263333384394        36.949999999982225     
   12.000000000000000        47.148165026247170        16.644073391631451        199.81971840015876        8.9613168182043204      -0.14436263333386609        36.949999999981465     
   12.500000000000000        46.908091157450571        17.309051316331150        199.80438548445977        9.3344672833244573      -0.14436263333388824        36.949999999980705     
   13.000000000000000        46.658637800741054        17.970567319729415        199.78842732412866        9.7075886435557539      -0.14436263333391039        36.949999999979937     
   13.500000000000000        46.399854825679199        18.628489089771403        199.77184398960725        10.080679735842198      -0.14436263333393246        36.949999999979184     
   14.000000000000000        46.131793966935334        19.282685032656339        199.75463555406267        10.453739397267086      -0.14436263333395458        36.949999999978424     
   14.500000000000000        45.854508813948108        19.933024299120600        199.73680209338366        10.826766465059309      -0.14436263333397670        36.949999999977670     
   15.000000000000000        45.568054800212956        20.579376810570739        199.71834368617650        11.199759776599718      -0.14436263333399876        36.949999999976910     
   15.500000000000000        45.272489192202713        21.221613285061242        199.69926041376115        11.572718169427571      -0.14436263333402086        36.949999999976157     
   16.000000000000000        44.967871077922666        21.859605263111831        199.67955236016718        11.945640481247073      -0.14436263333404289        36.949999999975404     
   16.500000000000000        44.654261355102371        22.493225133359168        199.65921961212962        12.318525549933991      -0.14436263333406493        36.949999999974658     
   17.000000000000000        44.331722719026637        23.122346158037860        199.63826225908485        12.691372213542355      -0.14436263333408694        36.949999999973898     
   17.500000000000000        44.000319650008272        23.746842498285709        199.61668039316649        13.064179310311239      -0.14436263333410895        36.949999999973151     
   18.000000000000000        43.660118400505027        24.366589239268126        199.59447410920106        13.436945678671622      -0.14436263333413096        36.949999999972398     
   18.500000000000000        43.311186981883473        24.981462415116813        199.57164350470379        13.809670157253327      -0.14436263333415292        36.949999999971652     
   19.000000000000000        42.953595150832506        25.591339033677663        199.54818867987439        14.182351584892043      -0.14436263333417490        36.949999999970899     
   19.500000000000000        42.587414395429214        26.196097101063060        199.52410973759265        14.554988800636409      -0.14436263333419688        36.949999999970160     
   20.000000000000000        42.212717920859987        26.795615646003672        199.49940678341423        14.927580643755185      -0.14436263333421881        36.949999999969407     
   20.500000000000000        41.829580634799790        27.389774743994924        199.47407992556626        15.300125953744491      -0.14436263333424071        36.949999999968654     
   21.000000000000000        41.438079132452543        27.978455541233405        199.44812927494306        15.672623570335107      -0.14436263333426269        36.949999999967908     
   21.500000000000000        41.038291681255728        28.561540278338455        199.42155494510180        16.045072333499853      -0.14436263333428453        36.949999999967162     
   22.000000000000000        40.630298205252203        29.138912313854270        199.39435705225821        16.417471083461024      -0.14436263333430638        36.949999999966415     
   22.500000000000000        40.214180269132569        29.710456147527886        199.36653571528220        16.789818660697886      -0.14436263333432828        36.949999999965669     
   23.000000000000000        39.790021061951194        30.276057443358464        199.33809105569358        17.162113905954243      -0.14436263333435015        36.949999999964916     
   23.500000000000000        39.357905380519242        30.835603052413340        199.30902319765781        17.534355660246046      -0.14436263333437191        36.949999999964170     
   24.000000000000000        38.917919612478116        31.388981035406353        199.27933226798163        17.906542764869069      -0.14436263333439370        36.949999999963431     
   24.500000000000000        38.470151719056645        31.936080685034010        199.24901839610894        18.278674061406626      -0.14436263333441546        36.949999999962685     
   25.000000000000000        38.014691217515626        32.476792548065134        199.21808171411644        18.650748391737348      -0.14436263333443722        36.949999999961946     
   25.500000000000000        37.551629163283138        33.011008447179634        199.18652235670950        19.022764598042993      -0.14436263333445898        36.949999999961207     
   26.000000000000000        37.081058131784346        33.538621502552125        199.15434046121800        19.394721522816308      -0.14436263333448074        36.949999999960454     
   26.500000000000000        36.603072199969361        34.059526153176186        199.12153616759210        19.766618008868932      -0.14436263333450242        36.949999999959701     
   27.000000000000000        36.117766927542981        34.573618177925056        199.08810961839825        20.138452899339327      -0.14436263333452415        36.949999999958962     
   27.500000000000000        35.625239337899977        35.080794716344698        199.05406095881503        20.510225037700760      -0.14436263333454580        36.949999999958216     
   28.000000000000000        35.125587898769851        35.580954289175139        199.01939033662910        20.881933267769298      -0.14436263333456745        36.949999999957477     
   28.500000000000000        34.618912502574894        36.073996818596065        198.98409790223130        21.253576433711846      -0.14436263333458904        36.949999999956731     
   29.000000000000000        34.105314446505524        36.559823648192761        198.94818380861255        21.625153380054204      -0.14436263333461069        36.949999999955992     
   29.500000000000000        33.584896412316859        37.038337562638475        198.91164821136010        21.996662951689153      -0.14436263333463226        36.949999999955246     
   30.000000000000000        33.057762445850607        37.509442807089385        198.87449126865346        22.368103993884564      -0.14436263333465385        36.949999999954507     
   30.500000000000000        32.524017936286342        37.973045106288417        198.83671314126070        22.739475352291510      -0.14436263333467542        36.949999999953768     
   31.000000000000000        31.983769595126336        38.429051683374105        198.79831399253462        23.110775872952420      -0.14436263333469698        36.949999999953022     
   31.500000000000000        31.437125434918119        38.877371278390974        198.75929398840896        23.482004402309215      -0.14436263333471847        36.949999999952276     
   32.000000000000000        30.884194747719032        39.317914166497729        198.71965329739476        23.853159787211492      -0.14436263333473998        36.949999999951537     
   32.500000000000000        30.325088083307072        39.750592175869777        198.67939209057661        24.224240874924682      -0.14436263333476154        36.949999999950791     
   33.000000000000000        29.759917227142335        40.175318705292590        198.63851054160909        24.595246513138239      -0.14436263333478302        36.949999999950045     
   33.500000000000000        29.188795178083467        40.592008741442477        198.59700882671319        24.966175549973819      -0.14436263333480440        36.949999999949306     
   34.000000000000000        28.611836125863565        41.000578875851446        198.55488712467272        25.337026833993470      -0.14436263333482591        36.949999999948560     
   34.500000000000000        28.029155428329972        41.400947321552835        198.51214561683085        25.707799214207814      -0.14436263333484731        36.949999999947813     
   35.000000000000000        27.440869588452507        41.793033929404501        198.46878448708665        26.078491540084244      -0.14436263333486873        36.949999999947075     
   35.500000000000000        26.847096231104679        42.176760204086406        198.42480392189171        26.449102661555095      -0.14436263333489016        36.949999999946328     
   36.000000000000000        26.247954079622492        42.552049319769502        198.38020411024667        26.819631429025826      -0.14436263333491153        36.949999999945582     
   36.500000000000000        25.643562932145475        42.918826135452839        198.33498524369801        27.190076693383190      -0.14436263333493290        36.949999999944843     
   37.000000000000000        25.034043637744638        43.277017209965997        198.28914751633471        27.560437306003390      -0.14436263333495422        36.949999999944097     
   37.500000000000000        24.419518072342061        43.626550816633895        198.24269112478490        27.930712118760237      -0.14436263333497557        36.949999999943358     
   38.000000000000000        23.800109114426860        43.967356957601098        198.19561626821280        28.300899984033286      -0.14436263333499691        36.949999999942612     
   38.500000000000000        23.175940620572355        44.299367377812970        198.14792314831541        28.670999754715965      -0.14436263333501817        36.949999999941866     
   39.000000000000000        22.547137400759269        44.622515578650827        198.09961196931943        29.041010284223677      -0.14436263333503946        36.949999999941120     
   39.500000000000000        21.913825193509787        44.936736831218532        198.05068293797808        29.410930426501910      -0.14436263333506075        36.949999999940381     
   40.000000000000000        21.276130640837437        45.241968189277962        198.00113626356810        29.780759036034304      -0.14436263333508204        36.949999999939628     
   40.500000000000000        20.634181263017659        45.538148501830783        197.95097215788664        30.150494967850726      -0.14436263333510324        36.949999999938882     
   41.000000000000000        19.988105433184099        45.825218425344183        197.90019083524825        30.520137077535296      -0.14436263333512453        36.949999999938136     
   41.500000000000000        19.338032351755576        46.103120435618109        197.84879251248188        30.889684221234422      -0.14436263333514573        36.949999999937390     
   42.000000000000000        18.684092020698760        46.371798839291777        197.79677740892788        31.259135255664795      -0.14436263333516700        36.949999999936644     
   42.500000000000000        18.026415217631648        46.631199784987182        197.74414574643515        31.628489038121369      -0.14436263333518817        36.949999999935898     
   43.000000000000000        17.365133469772900        46.881271274087446        197.69089774935813        31.997744426485326      -0.14436263333520941        36.949999999935145     
   43.500000000000000        16.700379027742152        47.121963171147989        197.63703364455398        32.366900279231999      -0.14436263333523058        36.949999999934391     
   44.000000000000000        16.032284839216448        47.353227213938389        197.58255366137965        32.735955455438791      -0.14436263333525179        36.949999999933638     
   44.500000000000000        15.360984522447994        47.575017023113055        197.52745803168906        33.104908814793049      -0.14436263333527291        36.949999999932899     
   45.000000000000000        14.686612339648374        47.787288111508822        197.47174698983025        33.473759217599941      -0.14436263333529406        36.949999999932146     
   45.500000000000000        14.009303170244477        47.989997893067653        197.41542077264256        33.842505524790283      -0.14436263333531515        36.949999999931400     
   46.000000000000000        13.329192484011394        48.183105691382721        197.35847961945390        34.211146597928341      -0.14436263333533630        36.949999999930647     
   46.500000000000000        12.646416314087499        48.366572747866186        197.30092377207791        34.579681299219629      -0.14436263333535740        36.949999999929901     
   47.000000000000000        11.961111229877055        48.540362229537102        197.24275347481114        34.948108491518653      -0.14436263333537852        36.949999999929148     
   47.500000000000000        11.273414309845606        48.704439236427888        197.18396897443043        35.316427038336649      -0.14436263333539959        36.949999999928401     
   48.000000000000000        10.583463114213512        48.858770808608000        197.12457052019005        35.684635803849268      -0.14436263333542068        36.949999999927641     
   48.500000000000000        9.8913956575529554        49.003325932823323        197.06455836381903        36.052733652904273      -0.14436263333544180        36.949999999926895     
   49.000000000000000        9.1973503812937842        49.138075548750059        197.00393275951842        36.420719451029179      -0.14436263333546290        36.949999999926142     
   49.500000000000000        8.5014661261435798        49.262992554861853        196.94269396395856        36.788592064438852      -0.14436263333548391        36.949999999925389     
   50.000000000000000        7.8038821044273199        49.378051813908982        196.88084223627641        37.156350360043128      -0.14436263333550492        36.949999999924643     
   50.500000000000000        7.1047378723520822        49.483230158008560        196.81837783807276        37.523993205454360      -0.14436263333552596        36.949999999923890     
   51.000000000000000        6.4041733022021807        49.578506393344732        196.75530103340967        37.891519468994950      -0.14436263333554694        36.949999999923136     
   51.500000000000000        5.7023285544701894        49.663861304477919        196.69161208880763        38.258928019704868      -0.14436263333556798        36.949999999922383     
   52.000000000000000        4.9993440499292952        49.739277658262253        196.62731127324298        38.626217727349115      -0.14436263333558896        36.949999999921637     
   52.500000000000000        4.2953604416524431        49.804740207370415        196.56239885814514        38.993387462425183      -0.14436263333560995        36.949999999920891     
   53.000000000000000        3.5905185869837393        49.860235693425160        196.49687511739396        39.360436096170460      -0.14436263333563090        36.949999999920131     
