 The initial conditions used: 
 Inital Time:    0.0000000000000000     
 Inital Position of Object 1:    50.000000000000000        0.0000000000000000     
 Inital Position of Object 2:    60.000000000000000        0.0000000000000000     
 Inital Velocity of Object 1:    0.0000000000000000        1.4139999999999999     
 Inital Velocity of Object 2:    0.0000000000000000       0.70699999999999996     

                time                 x_1                 y_1                 x_2                 y_2              energy    angular_momentum
  0.14999999999999999        49.999553375637809       0.21209935176952571        59.999125006508322       0.10605180430114267       -5.0590122650000025        354.77259999999995     
  0.29999999999999999        49.998213510205048       0.42419481418071359        59.996500104119377       0.21211443331401633       -5.0590122650000042        354.77259999999995     
  0.44999999999999996        49.995980426663458       0.63628249797686065        59.992125526997583       0.31819870684928969       -5.0590122650000087        354.77259999999984     
  0.59999999999999998        49.992854163283702       0.84835851410447760        59.986001665104794       0.42431543492393253       -5.0590122650000122        354.77259999999978     
  0.75000000000000000        49.988834773647014        1.0604189738147545        59.978129063732837       0.53047541288538402       -5.0590122650000167        354.77259999999973     
  0.90000000000000002        49.983922326647466        1.2724599887648580        59.968508422850704       0.63668941656086298       -5.0590122650000202        354.77259999999961     
   1.0500000000000000        49.978116906494918        1.4844776711190044        59.957140596268033       0.74296819744007037       -5.0590122650000255        354.77259999999956     
   1.2000000000000000        49.971418612718537        1.6964681336492540        59.944026590616922       0.84932247789942106       -5.0590122650000300        354.77259999999950     
   1.3499999999999999        49.963827560170976        1.9084274898359732        59.929167564154682       0.95576294647580518       -5.0590122650000353        354.77259999999944     
   1.4999999999999998        49.955343879033130        2.1203518539679109        59.912564825390383        1.0623002531977148       -5.0590122650000415        354.77259999999939     
   1.6499999999999997        49.945967714819460        2.3322373412418371        59.894219831538635        1.1689450049813812       -5.0590122650000469        354.77259999999922     
   1.7999999999999996        49.935699228383868        2.5440800678616955        59.874134186804390        1.2757077610993584       -5.0590122650000549        354.77259999999904     
   1.9499999999999995        49.924538595926130        2.7558761511372181        59.852309640502916        1.3825990287287466       -5.0590122650000637        354.77259999999899     
   2.0999999999999996        49.912486008998798        2.9676217095819561        59.828748085019484        1.4896292585860000       -5.0590122650000708        354.77259999999887     
   2.2499999999999996        49.899541674514602        3.1793128630106837        59.803451553613698        1.5968088406549770       -5.0590122650000815        354.77259999999882     
   2.3999999999999995        49.885705814754296        3.3909457326361259        59.776422218073670        1.7041481000146017       -5.0590122650000886        354.77259999999865     
   2.5499999999999994        49.870978667374899        3.6025164411649713        59.747662386225613        1.8116572927721890       -5.0590122650000957        354.77259999999859     
   2.6999999999999993        49.855360485418359        3.8140211128931334        59.717174499304683        1.9193466021081569       -5.0590122650001064        354.77259999999836     
   2.8499999999999992        49.838851537320515        4.0254558738002153        59.684961129193141        2.0272261344375084       -5.0590122650001144        354.77259999999825     
   2.9999999999999991        49.821452106920425        4.2368168516431481        59.651024975532252        2.1353059156931096       -5.0590122650001259        354.77259999999808     
   3.1499999999999990        49.803162493469934        4.4481001760489685        59.615368862714384        2.2435958877354283       -5.0590122650001375        354.77259999999796     
   3.2999999999999989        49.783983011643464        4.6593019786067016        59.577995736762183        2.3521059048930195       -5.0590122650001446        354.77259999999774     
   3.4499999999999988        49.763913991548073        4.8704183929583280        59.538908662101647        2.4608457306376712       -5.0590122650001570        354.77259999999757     
   3.5999999999999988        49.742955778733588        5.0814455548887949        59.498110818236249        2.5698250343977316       -5.0590122650001677        354.77259999999734     
   3.7499999999999987        49.721108734202922        5.2923796024150658        59.455605496329255        2.6790533885127572       -5.0590122650001801        354.77259999999717     
   3.8999999999999986        49.698373234422419        5.5032166758741701        59.411396095701541        2.7885402653322298       -5.0590122650001916        354.77259999999700     
   4.0499999999999989        49.674749671332286        5.7139529180102473        59.365486120252250        2.8982950344606975       -5.0590122650002032        354.77259999999671     
   4.1999999999999993        49.650238452356973        5.9245844740605573        59.317879174809704        3.0083269601513170       -5.0590122650002147        354.77259999999654     
   4.3499999999999996        49.624840000415546        6.1351074918404542        59.268578961419998        3.1186451988493813       -5.0590122650002245        354.77259999999649     
   4.5000000000000000        49.598554753931936        6.3455181218272987        59.217589275580622        3.2292587968870441       -5.0590122650002369        354.77259999999620     
   4.6500000000000004        49.571383166845102        6.5558125172433162        59.164914002426613        3.3401766883300774       -5.0590122650002511        354.77259999999598     
   4.8000000000000007        49.543325708619001        6.7659868341373750        59.110557112876528        3.4514076929771411       -5.0590122650002609        354.77259999999575     
   4.9500000000000011        49.514382864252340        6.9760372314656927        59.054522659745466        3.5629605145116763       -5.0590122650002725        354.77259999999558     
   5.1000000000000014        49.484555134288094        7.1859598711714652        58.996814773832455        3.6748437388062030       -5.0590122650002867        354.77259999999529     
   5.2500000000000018        49.453843034822761        7.3957509182634098        58.937437659989186        3.7870658323784578       -5.0590122650002991        354.77259999999507     
   5.4000000000000021        49.422247097515232        7.6054065408932372        58.876395593177094        3.8996351409984982       -5.0590122650003115        354.77259999999484     
   5.5500000000000025        49.389767869595367        7.8149229104320419        58.813692914519656        4.0125598884455789       -5.0590122650003213        354.77259999999461     
   5.7000000000000028        49.356405913872116        8.0242962015456261        58.749334027356518        4.1258481754133234       -5.0590122650003337        354.77259999999438     
   5.8500000000000032        49.322161808741235        8.2335225922687538        58.683323393306011        4.2395079785614316       -5.0590122650003426        354.77259999999416     
   6.0000000000000036        49.287036148192549        8.4425982640783594        58.615665528342348        4.3535471497118952       -5.0590122650003586        354.77259999999393     
   6.1500000000000039        49.251029541816671        8.6515194019656985        58.546364998893665        4.4679734151874539       -5.0590122650003684        354.77259999999359     
   6.3000000000000043        49.214142614811237        8.8602821945074766        58.475426417966837        4.5827943752897875       -5.0590122650003790        354.77259999999336     
   6.4500000000000046        49.176376007986541        9.0688828339359482        58.402854441304804        4.6980175039147216       -5.0590122650003897        354.77259999999313     
   6.6000000000000050        49.137730377770595        9.2773175162080079        58.328653763581919        4.8136501483015381       -5.0590122650004021        354.77259999999285     
   6.7500000000000053        49.098206396213577        9.4855824410732996        58.252829114642608        4.9296995289132797       -5.0590122650004128        354.77259999999262     
   6.9000000000000057        49.057804750991636        9.6936738121413377        58.175385255788385        5.0461727394447884       -5.0590122650004234        354.77259999999234     
   7.0500000000000060        49.016526145409991        9.9015878369476749        58.096326976118100        5.1630767469550660       -5.0590122650004350        354.77259999999205     
   7.2000000000000064        48.974371298405394        10.109320727019135        58.015659088926007        5.2804183921204055       -5.0590122650004457        354.77259999999183     
   7.3500000000000068        48.931340944547834        10.316868697938114        57.933386428161960        5.3982043896046292       -5.0590122650004563        354.77259999999160     
   7.5000000000000071        48.887435834041526        10.524227969405988        57.849513844957968        5.5164413285426743       -5.0590122650004670        354.77259999999126     
   7.6500000000000075        48.842656732725139        10.731394765305639        57.764046204224925        5.6351356731336697       -5.0590122650004785        354.77259999999097     
   7.8000000000000078        48.797004422071254        10.938365313763112        57.676988381323206        5.7542937633395939       -5.0590122650004874        354.77259999999063     
   7.9500000000000082        48.750479699185036        11.145135847208442        57.588345258810584        5.8739218156855308       -5.0590122650004972        354.77259999999040     
   8.1000000000000085        48.703083376802091        11.351702602435656        57.498121723270629        5.9940259241575164       -5.0590122650005078        354.77259999999006     
   8.2500000000000089        48.654816283285534        11.558061820661983        57.406322662224625        6.1146120611939292       -5.0590122650005158        354.77259999998984     
   8.4000000000000092        48.605679262622203        11.764209747586285        57.312952961129746        6.2356860787663653       -5.0590122650005291        354.77259999998950     
   8.5500000000000096        48.555673174418040        11.970142633446740        57.218017500466026        6.3572537095459447       -5.0590122650005371        354.77259999998921     
   8.7000000000000099        48.504798893892620        12.175856733077786        57.121521152914546        6.4793205681509978       -5.0590122650005487        354.77259999998887     
   8.8500000000000103        48.453057311872847        12.381348305966368        57.023468780628932        6.6018921524721019       -5.0590122650005593        354.77259999998859     
   9.0000000000000107        48.400449334785733        12.586613616307480        56.923865232602111        6.7249738450704735       -5.0590122650005682        354.77259999998824     
   9.1500000000000110        48.346975884650377        12.791648933059058        56.822715342130209        6.8485709146457596       -5.0590122650005753        354.77259999998796     
   9.3000000000000114        48.292637899069000        12.996450529996217        56.720023924375049        6.9726885175693267       -5.0590122650005860        354.77259999998762     
   9.4500000000000117        48.237436331217140        13.201014685764868        56.615795774026829        7.0973316994791995       -5.0590122650005949        354.77259999998734     
   9.6000000000000121        48.181372149832960        13.405337683934729        56.510035663068180        7.2225053969328705       -5.0590122650006029        354.77259999998699     
   9.7500000000000124        48.124446339205662        13.609415813051758        56.402748338640762        7.3482144391142787       -5.0590122650006126        354.77259999998671     
   9.9000000000000128        48.066659899163014        13.813245366690017        56.293938521015399        7.4744635495913334       -5.0590122650006206        354.77259999998643     
   10.050000000000013        48.008013845057995        14.016822643502994        56.183610901666619        7.6012573481204431       -5.0590122650006277        354.77259999998620     
   10.200000000000014        47.948509207754554        14.220143947274398        56.071770141452355        7.7286003524946096       -5.0590122650006366        354.77259999998586     
   10.350000000000014        47.888147033612476        14.423205586968448        55.958420868899438        7.8564969804317357       -5.0590122650006473        354.77259999998552     
   10.500000000000014        47.826928384471387        14.626003876779674        55.843567678595427        7.9849515514998970       -5.0590122650006517        354.77259999998518     
   10.650000000000015        47.764854337633835        14.828535136182243        55.727215129687224        8.1139682890764409       -5.0590122650006615        354.77259999998489     
   10.800000000000015        47.701925985847531        15.030795689978831        55.609367744486867        8.2435513223378631       -5.0590122650006695        354.77259999998461     
   10.950000000000015        47.638144437286698        15.232781868349051        55.490030007184764        8.3737046882775523       -5.0590122650006775        354.77259999998427     
   11.100000000000016        47.573510815532551        15.434490006897464        55.369206362670631        8.5044323337485714       -5.0590122650006846        354.77259999998392     
   11.250000000000016        47.508026259552892        15.635916446701177        55.246901215462337        8.6357381175287795       -5.0590122650006926        354.77259999998364     
   11.400000000000016        47.441691923680871        15.837057534357038        55.123118928742763        8.7676258124057007       -5.0590122650007014        354.77259999998336     
   11.550000000000017        47.374508977592853        16.037909622028458        54.997863823504844        8.9000991072786793       -5.0590122650007077        354.77259999998307     
   11.700000000000017        47.306478606285467        16.238469067491859        54.871140177804861        9.0331616092759344       -5.0590122650007157        354.77259999998267     
   11.850000000000017        47.237602010051766        16.438732234182773        54.742952226124025        9.1668168458842949       -5.0590122650007228        354.77259999998245     
   12.000000000000018        47.167880404456568        16.638695491241570        54.613304158838510        9.3010682670894660       -5.0590122650007316        354.77259999998216     
   12.150000000000018        47.097315020310951        16.838355213558895        54.482200121797938        9.4359192475248097       -5.0590122650007388        354.77259999998188     
   12.300000000000018        47.025907103645906        17.037707781820728        54.349644216012436        9.5713730886267339       -5.0590122650007485        354.77259999998148     
   12.450000000000019        46.953657915685156        17.236749582553170        54.215640497448391        9.7074330207948840       -5.0590122650007538        354.77259999998120     
   12.600000000000019        46.880568732817153        17.435477008166909        54.080192976933034        9.8441022055554583       -5.0590122650007627        354.77259999998086     
   12.750000000000020        46.806640846566275        17.633886457001385        53.943305620167976        9.9813837377260413       -5.0590122650007698        354.77259999998063     
   12.900000000000020        46.731875563563165        17.831974333368667        53.804982347852004        10.119280647580489       -5.0590122650007778        354.77259999998034     
   13.050000000000020        46.656274205514286        18.029737047597056        53.665227035913354        10.257795903012477       -5.0590122650007832        354.77259999998012     
   13.200000000000021        46.579838109170666        18.227171016074404        53.524043515851787        10.396932411696426       -5.0590122650007938        354.77259999997972     
   13.350000000000021        46.502568626295819        18.424272661291173        53.381435575190899        10.536693023244613       -5.0590122650008018        354.77259999997949     
   13.500000000000021        46.424467123632894        18.621038411883223        53.237406958041113        10.677080531359367       -5.0590122650008080        354.77259999997921     
   13.650000000000022        46.345534982870994        18.817464702674357        53.091961365773891        10.818097675979351       -5.0590122650008169        354.77259999997898     
   13.800000000000022        46.265773600610721        19.013547974718602        52.945102457807813        10.959747145418977       -5.0590122650008258        354.77259999997869     
   13.950000000000022        46.185184388328921        19.209284675342243        52.796833852507277        11.102031578500135       -5.0590122650008338        354.77259999997847     
   14.100000000000023        46.103768772342633        19.404671258185630        52.647159128194602        11.244953566675443       -5.0590122650008418        354.77259999997824     
   14.250000000000023        46.021528193772255        19.599704183244732        52.496081824276480        11.388515656142330       -5.0590122650008507        354.77259999997796     
   14.400000000000023        45.938464108503915        19.794379916912469        52.343605442485838        11.532720349947315       -5.0590122650008595        354.77259999997761     
   14.550000000000024        45.854577987151060        19.988694932019804        52.189733448240247        11.677570110079923       -5.0590122650008693        354.77259999997733     
   14.700000000000024        45.769871315015223        20.182645707876613        52.034469272118159        11.823067359555717       -5.0590122650008800        354.77259999997710     
   14.850000000000025        45.684345592046057        20.376228730312334        51.877816311454382        11.969214484487994       -5.0590122650008897        354.77259999997682     
   15.000000000000025        45.598002332800519        20.569440491716392        51.719777932056324        12.116013836147749       -5.0590122650008986        354.77259999997659     
   15.150000000000025        45.510843066401293        20.762277491078407        51.560357470042710        12.263467733011526       -5.0590122650009084        354.77259999997636     
   15.300000000000026        45.422869336494394        20.954736234028189        51.399558233806523        12.411578462796850       -5.0590122650009173        354.77259999997614     
   15.450000000000026        45.334082701205986        21.146813232875530        51.237383506104187        12.560348284484942       -5.0590122650009262        354.77259999997585     
   15.600000000000026        45.244484733098396        21.338505006649772        51.073836546273114        12.709779430330443       -5.0590122650009404        354.77259999997568     
   15.750000000000027        45.154077019125296        21.529808081139173        50.908920592579790        12.859874107857928       -5.0590122650009492        354.77259999997545     
   15.900000000000027        45.062861160586067        21.720718988930091        50.742638864700950        13.010634501844965       -5.0590122650009581        354.77259999997523     
